id	Desplazamiento	Velocidad	Aceleracion
0.000000	0.000000	0.000000	0.000000	
0.010000	0.000001	0.000314	0.062552	
0.020000	0.000008	0.001249	0.124220	
0.030000	0.000028	0.002794	0.184520	
0.040000	0.000066	0.004934	0.242981	
0.050000	0.000129	0.007646	0.299145	
0.060000	0.000221	0.010907	0.352567	
0.070000	0.000349	0.014685	0.402824	
0.080000	0.000516	0.018949	0.449510	
0.090000	0.000729	0.023659	0.492246	
0.100000	0.000991	0.028776	0.530676	
0.110000	0.001306	0.034253	0.564471	
0.120000	0.001677	0.040043	0.593335	
0.130000	0.002108	0.046095	0.616997	
0.140000	0.002600	0.052357	0.635226	
0.150000	0.003156	0.058772	0.647819	
0.160000	0.003776	0.065283	0.654611	
0.170000	0.004462	0.071832	0.655474	
0.180000	0.005213	0.078358	0.650316	
0.190000	0.006029	0.084802	0.639083	
0.200000	0.006909	0.091102	0.621759	
0.210000	0.007850	0.097197	0.598368	
0.220000	0.008852	0.103027	0.568971	
0.230000	0.009910	0.108533	0.533668	
0.240000	0.011021	0.113655	0.492595	
0.250000	0.012182	0.118338	0.445927	
0.260000	0.013387	0.122525	0.393876	
0.270000	0.014631	0.126165	0.336687	
0.280000	0.015908	0.129207	0.274641	
0.290000	0.017213	0.131604	0.208051	
0.300000	0.018538	0.133313	0.137261	
0.310000	0.019877	0.134293	0.062645	
0.320000	0.021222	0.134508	-0.015396	
0.330000	0.022565	0.133926	-0.096435	
0.340000	0.023898	0.132520	-0.180025	
0.350000	0.025213	0.130265	-0.265693	
0.360000	0.026500	0.127144	-0.352952	
0.370000	0.027753	0.123144	-0.441297	
0.380000	0.028960	0.118255	-0.530211	
0.390000	0.030115	0.112476	-0.619166	
0.400000	0.031207	0.105809	-0.707627	
0.410000	0.032228	0.098260	-0.795055	
0.420000	0.033170	0.089844	-0.880909	
0.430000	0.034023	0.080579	-0.964648	
0.440000	0.034779	0.070489	-1.045737	
0.450000	0.035430	0.059602	-1.123646	
0.460000	0.035968	0.047955	-1.197859	
0.470000	0.036387	0.035585	-1.267869	
0.480000	0.036678	0.022538	-1.333186	
0.490000	0.036835	0.008864	-1.393341	
0.500000	0.036853	-0.005384	-1.447883	
0.510000	0.036726	-0.020148	-1.496386	
0.520000	0.036449	-0.035364	-1.538452	
0.530000	0.036017	-0.050967	-1.573709	
0.540000	0.035428	-0.066886	-1.601820	
0.550000	0.034679	-0.083048	-1.622476	
0.560000	0.033767	-0.099377	-1.635408	
0.570000	0.032691	-0.115795	-1.640381	
0.580000	0.031451	-0.132221	-1.637198	
0.590000	0.030047	-0.148571	-1.625705	
0.600000	0.028480	-0.164764	-1.605786	
0.610000	0.026752	-0.180712	-1.577369	
0.620000	0.024867	-0.196332	-1.540424	
0.630000	0.022827	-0.211538	-1.494966	
0.640000	0.020637	-0.226244	-1.441051	
0.650000	0.018304	-0.240367	-1.378783	
0.660000	0.015832	-0.253824	-1.308307	
0.670000	0.013230	-0.266533	-1.229814	
0.680000	0.010504	-0.278415	-1.143538	
0.690000	0.007664	-0.289393	-1.049755	
0.700000	0.004719	-0.299395	-0.948783	
0.710000	0.001680	-0.308349	-0.840980	
0.720000	-0.001444	-0.316190	-0.726746	
0.730000	-0.004641	-0.322855	-0.606516	
0.740000	-0.007897	-0.328286	-0.480761	
0.750000	-0.011202	-0.332431	-0.349990	
0.760000	-0.014542	-0.335242	-0.214738	
0.770000	-0.017903	-0.336677	-0.075575	
0.780000	-0.021271	-0.336700	0.066904	
0.790000	-0.024632	-0.335280	0.212080	
0.800000	-0.027972	-0.332395	0.359310	
0.810000	-0.031275	-0.328027	0.507934	
0.820000	-0.034527	-0.322165	0.657275	
0.830000	-0.037714	-0.314806	0.806643	
0.840000	-0.040819	-0.305953	0.955338	
0.850000	-0.043828	-0.295617	1.102655	
0.860000	-0.046726	-0.283814	1.247883	
0.870000	-0.049500	-0.270570	1.390313	
0.880000	-0.052133	-0.255915	1.529240	
0.890000	-0.054613	-0.239890	1.663965	
0.900000	-0.056927	-0.222539	1.793798	
0.910000	-0.059060	-0.203915	1.918066	
0.920000	-0.061001	-0.184077	2.036111	
0.930000	-0.062738	-0.163090	2.147295	
0.940000	-0.064259	-0.141028	2.251004	
0.950000	-0.065555	-0.117966	2.346650	
0.960000	-0.066616	-0.093990	2.433677	
0.970000	-0.067432	-0.069189	2.511559	
0.980000	-0.067997	-0.043655	2.579807	
0.990000	-0.068303	-0.017489	2.637968	
1.000000	-0.068345	0.009206	2.685633	
1.010000	-0.068118	0.036323	2.722433	
1.020000	-0.067618	0.063753	2.748046	
1.030000	-0.066842	0.091380	2.762194	
1.040000	-0.065790	0.119090	2.764652	
1.050000	-0.064461	0.146763	2.755242	
1.060000	-0.062855	0.174281	2.733839	
1.070000	-0.060976	0.201523	2.700371	
1.080000	-0.058826	0.228367	2.654818	
1.090000	-0.056410	0.254693	2.597217	
1.100000	-0.053734	0.280380	2.527656	
1.110000	-0.050805	0.305309	2.446282	
1.120000	-0.047631	0.329364	2.353293	
1.130000	-0.044221	0.352428	2.248943	
1.140000	-0.040586	0.374389	2.133540	
1.150000	-0.036737	0.395138	2.007444	
1.160000	-0.032687	0.414571	1.871068	
1.170000	-0.028450	0.432586	1.724873	
1.180000	-0.024041	0.449088	1.569371	
1.190000	-0.019474	0.463986	1.405120	
1.200000	-0.014766	0.477195	1.232723	
1.210000	-0.009936	0.488638	1.052827	
1.220000	-0.005000	0.498242	0.866117	
1.230000	0.000023	0.505943	0.673317	
1.240000	0.005113	0.511684	0.475185	
1.250000	0.010250	0.515414	0.272510	
1.260000	0.015414	0.517094	0.066111	
1.270000	0.020585	0.516689	-0.143169	
1.280000	0.025741	0.514176	-0.354466	
1.290000	0.030862	0.509538	-0.566897	
1.300000	0.035925	0.502769	-0.779565	
1.310000	0.040910	0.493871	-0.991564	
1.320000	0.045796	0.482855	-1.201980	
1.330000	0.050560	0.469742	-1.409897	
1.340000	0.055184	0.454561	-1.614402	
1.350000	0.059645	0.437352	-1.814586	
1.360000	0.063924	0.418163	-2.009549	
1.370000	0.068002	0.397049	-2.198406	
1.380000	0.071859	0.374077	-2.380290	
1.390000	0.075478	0.349321	-2.554355	
1.400000	0.078840	0.322864	-2.719779	
1.410000	0.081930	0.294796	-2.875772	
1.420000	0.084731	0.265216	-3.021575	
1.430000	0.087230	0.234229	-3.156466	
1.440000	0.089412	0.201948	-3.279763	
1.450000	0.091265	0.168494	-3.390829	
1.460000	0.092778	0.133991	-3.489070	
1.470000	0.093942	0.098571	-3.573943	
1.480000	0.094747	0.062370	-3.644960	
1.490000	0.095187	0.025530	-3.701682	
1.500000	0.095256	-0.011805	-3.743732	
1.510000	0.094950	-0.049485	-3.770789	
1.520000	0.094266	-0.087358	-3.782596	
1.530000	0.093202	-0.125272	-3.778955	
1.540000	0.091761	-0.163069	-3.759735	
1.550000	0.089942	-0.200595	-3.724867	
1.560000	0.087750	-0.237691	-3.674352	
1.570000	0.085190	-0.274202	-3.608254	
1.580000	0.082268	-0.309971	-3.526703	
1.590000	0.078994	-0.344845	-3.429900	
1.600000	0.075375	-0.378672	-3.318107	
1.610000	0.071424	-0.411304	-3.191655	
1.620000	0.067153	-0.442595	-3.050938	
1.630000	0.062577	-0.472405	-2.896415	
1.640000	0.057711	-0.500598	-2.728606	
1.650000	0.052571	-0.527044	-2.548091	
1.660000	0.047176	-0.551619	-2.355509	
1.670000	0.041545	-0.574204	-2.151555	
1.680000	0.035699	-0.594691	-1.936977	
1.690000	0.029658	-0.612975	-1.712574	
1.700000	0.023447	-0.628964	-1.479193	
1.710000	0.017087	-0.642572	-1.237725	
1.720000	0.010603	-0.653722	-0.989100	
1.730000	0.004021	-0.662347	-0.734290	
1.740000	-0.002635	-0.668391	-0.474296	
1.750000	-0.009338	-0.671807	-0.210151	
1.760000	-0.016062	-0.672558	0.057089	
1.770000	-0.022781	-0.670619	0.326343	
1.780000	-0.029466	-0.665976	0.596518	
1.790000	-0.036091	-0.658624	0.866506	
1.800000	-0.042630	-0.648571	1.135192	
1.810000	-0.049054	-0.635836	1.401459	
1.820000	-0.055338	-0.620449	1.664191	
1.830000	-0.061454	-0.602451	1.922278	
1.840000	-0.067378	-0.581895	2.174622	
1.850000	-0.073084	-0.558842	2.420141	
1.860000	-0.078547	-0.533367	2.657773	
1.870000	-0.083744	-0.505554	2.886482	
1.880000	-0.088651	-0.475499	3.105262	
1.890000	-0.093247	-0.443304	3.313138	
1.900000	-0.097510	-0.409085	3.509178	
1.910000	-0.101422	-0.372965	3.692488	
1.920000	-0.104964	-0.335075	3.862224	
1.930000	-0.108118	-0.295556	4.017592	
1.940000	-0.110870	-0.254556	4.157850	
1.950000	-0.113205	-0.212229	4.282314	
1.960000	-0.115111	-0.168737	4.390364	
1.970000	-0.116577	-0.124248	4.481439	
1.980000	-0.117593	-0.078934	4.555047	
1.990000	-0.118153	-0.032972	4.610765	
2.000000	-0.118251	0.013456	4.648240	
2.010000	-0.117883	0.060166	4.667193	
2.020000	-0.117047	0.106971	4.667419	
2.030000	-0.115744	0.153683	4.648789	
2.040000	-0.113975	0.200112	4.611252	
2.050000	-0.111743	0.246069	4.554832	
2.060000	-0.109056	0.291366	4.479635	
2.070000	-0.105919	0.335814	4.385840	
2.080000	-0.102343	0.379229	4.273708	
2.090000	-0.098338	0.421428	4.143576	
2.100000	-0.093919	0.462233	3.995855	
2.110000	-0.089099	0.501470	3.831034	
2.120000	-0.083895	0.538971	3.649673	
2.130000	-0.078326	0.574572	3.452405	
2.140000	-0.072411	0.608118	3.239931	
2.150000	-0.066171	0.639461	3.013020	
2.160000	-0.059629	0.668459	2.772503	
2.170000	-0.052810	0.694980	2.519274	
2.180000	-0.045738	0.718903	2.254283	
2.190000	-0.038441	0.740114	1.978534	
2.200000	-0.030945	0.758511	1.693082	
2.210000	-0.023280	0.774002	1.399028	
2.220000	-0.015475	0.786506	1.097513	
2.230000	-0.007560	0.795954	0.789716	
2.240000	0.000434	0.802291	0.476850	
2.250000	0.008475	0.805470	0.160153	
2.260000	0.016533	0.805461	-0.159111	
2.270000	0.024574	0.802244	-0.479664	
2.280000	0.032567	0.795812	-0.800213	
2.290000	0.040480	0.786172	-1.119457	
2.300000	0.048280	0.773344	-1.436096	
2.310000	0.055936	0.757360	-1.748832	
2.320000	0.063417	0.738266	-2.056375	
2.330000	0.070691	0.716121	-2.357449	
2.340000	0.077729	0.690996	-2.650799	
2.350000	0.084502	0.662975	-2.935195	
2.360000	0.090980	0.632152	-3.209433	
2.370000	0.097136	0.598637	-3.472349	
2.380000	0.102944	0.562549	-3.722816	
2.390000	0.108379	0.524017	-3.959752	
2.400000	0.113417	0.483182	-4.182125	
2.410000	0.118035	0.440196	-4.388957	
2.420000	0.122214	0.395220	-4.579327	
2.430000	0.125934	0.348422	-4.752378	
2.440000	0.129177	0.299979	-4.907317	
2.450000	0.131929	0.250079	-5.043423	
2.460000	0.134175	0.198912	-5.160047	
2.470000	0.135903	0.146677	-5.256614	
2.480000	0.137105	0.093577	-5.332631	
2.490000	0.137773	0.039821	-5.387683	
2.500000	0.137900	-0.014380	-5.421440	
2.510000	0.137484	-0.068810	-5.433656	
2.520000	0.136524	-0.123253	-5.424172	
2.530000	0.135020	-0.177491	-5.392916	
2.540000	0.132976	-0.231305	-5.339904	
2.550000	0.130396	-0.284479	-5.265240	
2.560000	0.127289	-0.336795	-5.169118	
2.570000	0.123664	-0.388040	-5.051817	
2.580000	0.119533	-0.438004	-4.913706	
2.590000	0.114909	-0.486480	-4.755239	
2.600000	0.109809	-0.533267	-4.576955	
2.610000	0.104250	-0.578168	-4.379476	
2.620000	0.098252	-0.620997	-4.163504	
2.630000	0.091837	-0.661569	-3.929821	
2.640000	0.085029	-0.699713	-3.679281	
2.650000	0.077852	-0.735265	-3.412814	
2.660000	0.070333	-0.768068	-3.131416	
2.670000	0.062500	-0.797980	-2.836150	
2.680000	0.054383	-0.824866	-2.528139	
2.690000	0.046013	-0.848605	-2.208562	
2.700000	0.037422	-0.869087	-1.878652	
2.710000	0.028642	-0.886215	-1.539688	
2.720000	0.019709	-0.899905	-1.192991	
2.730000	0.010656	-0.910085	-0.839919	
2.740000	0.001519	-0.916700	-0.481864	
2.750000	-0.007666	-0.919706	-0.120243	
2.760000	-0.016863	-0.919075	0.243509	
2.770000	-0.026036	-0.914793	0.607938	
2.780000	-0.035147	-0.906860	0.971583	
2.790000	-0.044161	-0.895291	1.332980	
2.800000	-0.053041	-0.880118	1.690668	
2.810000	-0.061751	-0.861383	2.043194	
2.820000	-0.070257	-0.839146	2.389119	
2.830000	-0.078523	-0.813481	2.727026	
2.840000	-0.086515	-0.784475	3.055525	
2.850000	-0.094202	-0.752228	3.373256	
2.860000	-0.101550	-0.716857	3.678898	
2.870000	-0.108529	-0.678488	3.971174	
2.880000	-0.115110	-0.637261	4.248855	
2.890000	-0.121265	-0.593330	4.510765	
2.900000	-0.126968	-0.546857	4.755787	
2.910000	-0.132195	-0.498017	4.982870	
2.920000	-0.136921	-0.446996	5.191027	
2.930000	-0.141128	-0.393988	5.379348	
2.940000	-0.144795	-0.339195	5.546995	
2.950000	-0.147907	-0.282829	5.693212	
2.960000	-0.150447	-0.225109	5.817327	
2.970000	-0.152405	-0.166258	5.918753	
2.980000	-0.153770	-0.106507	5.996993	
2.990000	-0.154533	-0.046091	6.051641	
3.000000	-0.154690	0.014753	6.082384	
3.010000	-0.154238	0.075783	6.089005	
3.020000	-0.153175	0.136758	6.071382	
3.030000	-0.151503	0.197433	6.029493	
3.040000	-0.149228	0.257566	5.963409	
3.050000	-0.146355	0.316915	5.873303	
3.060000	-0.142893	0.375240	5.759442	
3.070000	-0.138854	0.432306	5.622192	
3.080000	-0.134252	0.487880	5.462013	
3.090000	-0.129102	0.541735	5.279459	
3.100000	-0.123424	0.593649	5.075176	
3.110000	-0.117237	0.643408	4.849901	
3.120000	-0.110563	0.690807	4.604457	
3.130000	-0.103429	0.735647	4.339751	
3.140000	-0.095860	0.777741	4.056770	
3.150000	-0.087884	0.816909	3.756580	
3.160000	-0.079532	0.852987	3.440318	
3.170000	-0.070835	0.885818	3.109191	
3.180000	-0.061827	0.915259	2.764470	
3.190000	-0.052541	0.941182	2.407483	
3.200000	-0.043015	0.963469	2.039614	
3.210000	-0.033284	0.982020	1.662295	
3.220000	-0.023387	0.996747	1.277002	
3.230000	-0.013362	1.007578	0.885246	
3.240000	-0.003249	1.014455	0.488570	
3.250000	0.006913	1.017337	0.088543	
3.260000	0.017084	1.016198	-0.313249	
3.270000	0.027224	1.011030	-0.715205	
3.280000	0.037292	1.001837	-1.115721	
3.290000	0.047247	0.988644	-1.513191	
3.300000	0.057051	0.971488	-1.906016	
3.310000	0.066664	0.950424	-2.292611	
3.320000	0.076047	0.925522	-2.671412	
3.330000	0.085162	0.896869	-3.040879	
3.340000	0.093972	0.864565	-3.399504	
3.350000	0.102442	0.828727	-3.745820	
3.360000	0.110536	0.789485	-4.078402	
3.370000	0.118221	0.746984	-4.395877	
3.380000	0.125465	0.701383	-4.696928	
3.390000	0.132239	0.652851	-4.980300	
3.400000	0.138513	0.601572	-5.244802	
3.410000	0.144262	0.547742	-5.489319	
3.420000	0.149460	0.491566	-5.712809	
3.430000	0.154086	0.433259	-5.914313	
3.440000	0.158119	0.373047	-6.092956	
3.450000	0.161542	0.311163	-6.247953	
3.460000	0.164338	0.247847	-6.378610	
3.470000	0.166495	0.183346	-6.484329	
3.480000	0.168002	0.117913	-6.564610	
3.490000	0.168851	0.051806	-6.619053	
3.500000	0.169036	-0.014716	-6.647360	
3.510000	0.168556	-0.081389	-6.649338	
3.520000	0.167409	-0.147948	-6.624897	
3.530000	0.165598	-0.214130	-6.574054	
3.540000	0.163129	-0.279669	-6.496931	
3.550000	0.160008	-0.344303	-6.393755	
3.560000	0.156247	-0.407773	-6.264859	
3.570000	0.151857	-0.469823	-6.110679	
3.580000	0.146856	-0.530202	-5.931755	
3.590000	0.141260	-0.588665	-5.728725	
3.600000	0.135090	-0.644974	-5.502328	
3.610000	0.128368	-0.698899	-5.253396	
3.620000	0.121120	-0.750219	-4.982856	
3.630000	0.113373	-0.798723	-4.691722	
3.640000	0.105156	-0.844208	-4.381094	
3.650000	0.096500	-0.886486	-4.052154	
3.660000	0.087438	-0.925379	-3.706160	
3.670000	0.078004	-0.960723	-3.344442	
3.680000	0.068235	-0.992368	-2.968394	
3.690000	0.058169	-1.020177	-2.579475	
3.700000	0.047845	-1.044028	-2.179198	
3.710000	0.037302	-1.063815	-1.769125	
3.720000	0.026583	-1.079449	-1.350862	
3.730000	0.015727	-1.090856	-0.926052	
3.740000	0.004780	-1.097978	-0.496369	
3.750000	-0.006218	-1.100774	-0.063510	
3.760000	-0.017221	-1.099223	0.370808	
3.770000	-0.028188	-1.093317	0.804862	
3.780000	-0.039073	-1.083069	1.236920	
3.790000	-0.049835	-1.068506	1.665259	
3.800000	-0.060429	-1.049675	2.088161	
3.810000	-0.070814	-1.026639	2.503929	
3.820000	-0.080948	-0.999479	2.910887	
3.830000	-0.090791	-0.968289	3.307393	
3.840000	-0.100301	-0.933184	3.691840	
3.850000	-0.109442	-0.894292	4.062666	
3.860000	-0.118175	-0.851758	4.418358	
3.870000	-0.126465	-0.805740	4.757461	
3.880000	-0.134279	-0.756412	5.078582	
3.890000	-0.141583	-0.703961	5.380395	
3.900000	-0.148348	-0.648587	5.661651	
3.910000	-0.154546	-0.590502	5.921175	
3.920000	-0.160150	-0.529930	6.157880	
3.930000	-0.165137	-0.467103	6.370765	
3.940000	-0.169486	-0.402266	6.558923	
3.950000	-0.173177	-0.335671	6.721541	
3.960000	-0.176194	-0.267577	6.857909	
3.970000	-0.178524	-0.198251	6.967417	
3.980000	-0.180156	-0.127965	7.049563	
3.990000	-0.181081	-0.056994	7.103951	
4.000000	-0.181295	0.014380	7.130296	
4.010000	-0.180793	0.085877	7.128424	
4.020000	-0.179578	0.157212	7.098273	
4.030000	-0.177651	0.228103	7.039893	
4.040000	-0.175018	0.298267	6.953448	
4.050000	-0.171689	0.367424	6.839212	
4.060000	-0.167674	0.435298	6.697573	
4.070000	-0.162988	0.501615	6.529027	
4.080000	-0.157648	0.566110	6.334181	
4.090000	-0.151673	0.628522	6.113747	
4.100000	-0.145085	0.688599	5.868538	
4.110000	-0.137909	0.746097	5.599473	
4.120000	-0.130173	0.800781	5.307563	
4.130000	-0.121904	0.852428	4.993917	
4.140000	-0.113135	0.900826	4.659729	
4.150000	-0.103899	0.945777	4.306280	
4.160000	-0.094232	0.987092	3.934931	
4.170000	-0.084170	1.024600	3.547115	
4.180000	-0.073753	1.058144	3.144337	
4.190000	-0.063021	1.087582	2.728163	
4.200000	-0.052015	1.112786	2.300217	
4.210000	-0.040779	1.133648	1.862172	
4.220000	-0.029357	1.150075	1.415745	
4.230000	-0.017793	1.161991	0.962693	
4.240000	-0.006132	1.169340	0.504801	
4.250000	0.005579	1.172081	0.043877	
4.260000	0.017294	1.170194	-0.418254	
4.270000	0.028967	1.163676	-0.879759	
4.280000	0.040552	1.152542	-1.338803	
4.290000	0.052003	1.136826	-1.793556	
4.300000	0.063273	1.116581	-2.242204	
4.310000	0.074319	1.091876	-2.682949	
4.320000	0.085096	1.062799	-3.114025	
4.330000	0.095561	1.029458	-3.533698	
4.340000	0.105672	0.991973	-3.940276	
4.350000	0.115387	0.950485	-4.332117	
4.360000	0.124669	0.905150	-4.707633	
4.370000	0.133478	0.856139	-5.065297	
4.380000	0.141780	0.803638	-5.403652	
4.390000	0.149540	0.747848	-5.721313	
4.400000	0.156727	0.688984	-6.016975	
4.410000	0.163310	0.627271	-6.289418	
4.420000	0.169264	0.562949	-6.537512	
4.430000	0.174562	0.496266	-6.760221	
4.440000	0.179182	0.427483	-6.956609	
4.450000	0.183105	0.356867	-7.125842	
4.460000	0.186314	0.284694	-7.267192	
4.470000	0.188795	0.211247	-7.380041	
4.480000	0.190536	0.136814	-7.463883	
4.490000	0.191529	0.061689	-7.518328	
4.500000	0.191769	-0.013833	-7.543098	
4.510000	0.191252	-0.089454	-7.538038	
4.520000	0.189980	-0.164873	-7.503107	
4.530000	0.187956	-0.239792	-7.438384	
4.540000	0.185187	-0.313913	-7.344067	
4.550000	0.181682	-0.386941	-7.220473	
4.560000	0.177453	-0.458584	-7.068034	
4.570000	0.172516	-0.528556	-6.887299	
4.580000	0.166888	-0.596576	-6.678931	
4.590000	0.160592	-0.662372	-6.443702	
4.600000	0.153649	-0.725678	-6.182494	
4.610000	0.146087	-0.786238	-5.896294	
4.620000	0.137935	-0.843808	-5.586190	
4.630000	0.129222	-0.898154	-5.253366	
4.640000	0.119983	-0.949054	-4.899100	
4.650000	0.110253	-0.996301	-4.524758	
4.660000	0.100070	-1.039699	-4.131786	
4.670000	0.089473	-1.079071	-3.721710	
4.680000	0.078502	-1.114252	-3.296123	
4.690000	0.067202	-1.145096	-2.856686	
4.700000	0.055615	-1.171471	-2.405116	
4.710000	0.043788	-1.193266	-1.943183	
4.720000	0.031766	-1.210385	-1.472701	
4.730000	0.019596	-1.222753	-0.995519	
4.740000	0.007327	-1.230311	-0.513518	
4.750000	-0.004994	-1.233020	-0.028603	
4.760000	-0.017318	-1.230862	0.457310	
4.770000	-0.029595	-1.223835	0.942293	
4.780000	-0.041778	-1.211959	1.424422	
4.790000	-0.053818	-1.195272	1.901780	
4.800000	-0.065668	-1.173831	2.372463	
4.810000	-0.077279	-1.147713	2.834595	
4.820000	-0.088607	-1.117013	3.286326	
4.830000	-0.099605	-1.081845	3.725847	
4.840000	-0.110229	-1.042339	4.151393	
4.850000	-0.120438	-0.998644	4.561253	
4.860000	-0.130189	-0.950927	4.953773	
4.870000	-0.139443	-0.899368	5.327367	
4.880000	-0.148164	-0.844165	5.680520	
4.890000	-0.156315	-0.785531	6.011798	
4.900000	-0.163864	-0.723692	6.319848	
4.910000	-0.170779	-0.658887	6.603411	
4.920000	-0.177033	-0.591367	6.861320	
4.930000	-0.182599	-0.521395	7.092508	
4.940000	-0.187454	-0.449244	7.296015	
4.950000	-0.191577	-0.375195	7.470986	
4.960000	-0.194952	-0.299540	7.616681	
4.970000	-0.197564	-0.222573	7.732473	
4.980000	-0.199400	-0.144599	7.817854	
4.990000	-0.200454	-0.065923	7.872434	
5.000000	-0.200718	0.013144	7.895946	
5.010000	-0.200190	0.092290	7.888247	
5.020000	-0.198873	0.171201	7.849316	
5.030000	-0.196768	0.249565	7.779257	
5.040000	-0.193884	0.327071	7.678296	
5.050000	-0.190231	0.403411	7.546784	
5.060000	-0.185821	0.478281	7.385194	
5.070000	-0.180671	0.551382	7.194117	
5.080000	-0.174800	0.622422	6.974264	
5.090000	-0.168231	0.691117	6.726461	
5.100000	-0.160987	0.757190	6.451645	
5.110000	-0.153096	0.820377	6.150863	
5.120000	-0.144590	0.880423	5.825267	
5.130000	-0.135499	0.937085	5.476108	
5.140000	-0.125860	0.990134	5.104733	
5.150000	-0.115709	1.039354	4.712579	
5.160000	-0.105087	1.084544	4.301169	
5.170000	-0.094033	1.125520	3.872103	
5.180000	-0.082591	1.162112	3.427054	
